186.214
285.797
265.990
168.558
233.702
274.653
167.234
181.546
268.758
189.935
147.202
247.934
221.318
125.937
197.038
241.614
131.793
149.988
234.835
152.320
106.353
203.434
181.646
85.441
164.076
202.728
97.674
125.193
223.670
152.025
112.702
218.337
199.479
112.045
195.392
234.680
121.783
140.164
232.114
161.609
120.946
224.375
205.797
111.276
184.594
228.525
125.323
144.041
231.564
154.416
109.948
208.347
186.846
90.703
166.984
212.661
102.832
131.033
229.751
131.812
82.906
213.312
190.350
82.503
176.284
220.951
98.343
129.567
236.612
134.853
88.273
216.432
189.740
83.930
175.795
209.151
66.094
73.839
143.783
19.770
-34.254
101.004
81.618
-25.208
70.915
125.231
21.568
103.761
253.085
164.951
124.567
252.026
213.499
106.946
198.387
233.574
109.080
141.572
252.902
152.884
109.335
237.519
200.095
59.892
105.675
42.588
-275.237
-595.728
-854.840
-990.386
-476.299
550.558
1215.131
1614.864
1993.263
1942.234
1575.828
1317.106
1082.447
618.426
249.056
130.513
-57.409
-244.702
-194.542
-178.561
-333.076
-320.703
-241.235
-357.612
-419.073
-303.543
-352.948
-472.623
-392.137
-367.661
-510.977
-496.307
-418.957
-543.204
-616.287
-518.031
-586.998
-732.365
-672.948
-675.845
-845.032
-862.768
-814.495
-959.380
-1050.498
-966.514
-1035.412
-1172.614
-1096.015
-1071.723
-1198.201
-1146.879
-999.856
-1023.591
-961.725
-714.481
-616.750
-582.833
-351.115
-186.545
-200.682
-72.328
106.611
56.219
60.963
219.205
200.306
112.456
229.818
277.727
147.410
180.897
277.071
169.572
122.915
241.030
190.128
74.105
177.270
214.209
83.312
114.022
211.942
109.125
67.855
192.389
153.308
56.963
157.577
188.434
61.199
105.890
213.598
109.410
72.104
201.787
165.175
62.160
164.913
207.461
78.809
119.227
221.475
118.523
87.710
210.193
170.186
69.894
170.883
210.001
89.913
131.521
229.481
127.902
96.142
220.486
174.652
72.536
178.740
216.360
88.946
133.912
235.161
126.453
90.228
214.769
173.897
69.618
166.466
198.613
74.534
119.501
223.419
118.003
80.453
210.063
168.227
67.208
166.434
201.258
67.117
107.366
213.254
109.681
71.920
199.691
153.211
58.417
169.672
193.715
51.570
78.167
158.950
17.801
-48.322
70.150
40.850
-49.788
51.710
83.096
-33.776
42.960
188.901
117.247
104.733
233.433
176.761
71.720
180.529
218.261
85.080
119.094
208.271
98.325
66.330
191.832
147.509
38.328
113.104
72.899
-191.193
-389.046
-689.486
-1054.611
-909.804
-35.919
818.693
1337.498
1870.513
2009.702
1721.602
1503.907
1275.346
800.218
397.381
221.339
-26.788
-236.237
-196.705
-202.464
-350.743
-326.168
-252.158
-381.459
-426.127
-315.974
-382.779
-496.423
-400.368
-383.537
-528.842
-495.234
-420.422
-550.940
-609.610
-513.167
-592.848
-720.750
-653.615
-667.330
-840.691
-840.479
-792.248
-948.146
-1022.727
-941.963
-1028.109
-1158.450
-1084.581
-1077.573
-1215.502
-1168.541
-1045.784
-1099.392
-1047.799
-820.213
-746.980
-709.543
-460.027
-291.381
-295.682
-143.310
35.069
-2.826
18.086
184.482
168.056
88.613
209.246
241.627
117.254
167.574
262.271
144.172
105.744
224.124
171.772
73.357
177.879
204.046
71.856
119.860
215.072
107.118
78.002
199.175
141.276
43.590
149.386
179.435
46.962
95.530
189.893
80.863
55.989
186.730
139.892
40.027
155.724
184.031
62.397
121.516
219.009
106.053
76.519
205.460
159.088
67.303
178.958
210.604
87.827
140.445
236.116
125.508
99.121
221.701
166.306
73.020
183.013
213.912
91.888
145.516
237.627
126.216
100.860
229.803
177.563
82.353
186.294
208.638
80.039
133.523
227.797
117.063
100.244
227.721
174.338
74.642
183.507
210.634
85.445
139.987
229.756
119.256
95.744
222.043
164.096
75.033
185.480
209.584
85.642
138.439
218.616
92.358
51.629
146.578
57.929
-54.770
67.018
107.398
-17.671
27.330
118.550
29.356
56.115
231.195
190.098
102.369
209.326
233.598
105.302
160.269
246.184
125.973
100.102
225.524
166.475
74.107
189.393
212.326
62.150
75.515
68.412
-214.091
-536.600
-790.273
-985.397
-666.742
349.081
1202.898
1595.500
1954.225
2010.620
1694.250
1376.749
1142.614
700.584
259.202
110.481
-32.613
-245.200
-238.487
-186.694
-326.760
-364.364
-261.900
-337.280
-441.486
-344.001
-334.497
-473.851
-431.460
-358.305
-492.192
-531.395
-431.901
-512.743
-629.448
-543.342
-560.799
-725.706
-705.583
-655.149
-814.172
-885.732
-812.107
-920.004
-1059.528
-988.359
-1008.555
-1166.916
-1136.925
-1068.326
-1192.392
-1208.480
-1048.310
-1045.052
-1041.777
-816.395
-665.508
-654.237
-454.984
-237.558
-235.613
-146.110
64.312
63.838
13.797
158.075
198.936
91.878
166.039
258.408
138.874
127.608
244.689
177.409
75.713
180.562
184.236
57.453
122.123
206.834
90.553
70.880
190.158
129.440
40.838
152.410
158.983
35.514
91.203
170.484
56.351
38.832
159.191
98.634
13.894
131.630
148.756
28.950
93.209
181.984
72.242
52.637
179.064
117.429
37.732
153.637
168.958
42.359
101.213
188.737
73.634
56.066
179.032
123.736
49.551
161.799
170.185
38.218
99.542
186.367
72.034
58.998
185.818
122.431
35.012
153.227
165.651
40.257
98.624
182.668
65.716
49.327
172.318
114.589
32.449
149.827
164.247
31.946
92.431
174.288
56.491
49.720
175.366
106.376
23.962
149.423
160.020
31.922
93.846
174.344
67.843
60.674
185.683
110.759
32.096
146.264
137.507
3.719
50.764
99.041
-48.807
-48.713
92.903
33.089
-56.205
55.147
83.326
-5.124
121.914
235.403
129.699
118.983
247.573
182.625
101.610
219.125
224.208
92.538
157.966
236.404
112.089
102.579
223.375
131.233
8.519
42.305
-110.853
-504.184
-810.252
-869.653
-596.401
341.824
1417.931
1881.835
2009.938
2069.604
1878.248
1436.708
1125.367
786.687
295.117
34.794
8.935
-146.926
-273.525
-183.959
-203.947
-351.544
-299.996
-242.228
-393.539
-425.148
-326.200
-407.764
-505.134
-402.979
-413.145
-551.346
-495.876
-441.143
-589.940
-624.993
-533.725
-640.111
-760.072
-679.678
-714.539
-890.184
-871.482
-837.684
-1002.664
-1054.721
-975.832
-1082.126
-1193.806
-1099.296
-1109.040
-1228.088
-1141.824
-1008.043
-1040.630
-930.961
-674.783
-597.894
-528.776
-264.854
-129.296
-144.145
19.639
174.343
107.960
138.592
288.443
236.492
169.021
292.930
300.045
178.014
242.987
313.978
183.188
178.795
291.437
212.320
131.523
248.140
247.955
126.326
206.536
282.220
163.262
155.929
272.754
194.756
109.661
219.108
222.197
97.035
171.753
247.427
125.877
119.121
238.591
164.977
92.895
221.126
229.186
112.494
189.714
265.358
144.519
147.334
268.955
193.280
116.244
236.350
240.321
112.200
186.968
257.624
132.609
133.817
256.362
182.841
99.795
214.066
218.708
102.186
174.682
245.331
128.904
136.317
256.951
174.070
91.492
214.790
217.413
99.935
179.211
254.738
127.559
125.707
249.229
175.521
105.566
231.169
230.830
110.995
180.382
251.049
132.988
138.379
258.814
181.258
110.352
229.701
225.533
101.761
179.132
261.275
138.287
121.165
224.265
127.284
25.087
112.680
87.871
-18.568
75.881
144.584
20.085
29.702
177.709
142.526
116.945
258.830
257.859
134.299
214.627
288.554
161.993
158.650
276.049
194.053
117.901
240.870
237.978
113.656
187.543
234.313
69.478
-10.854
-54.884
-434.639
-904.617
-964.283
-614.446
153.915
1147.055
1808.476
2006.551
1971.715
1885.383
1514.281
1077.438
785.190
405.048
13.434
-81.130
-99.207
-269.865
-298.567
-208.587
-311.511
-399.820
-291.533
-315.470
-451.007
-395.290
-349.023
-488.412
-496.540
-396.968
-493.990
-591.912
-498.300
-533.669
-679.605
-633.472
-594.092
-758.440
-798.393
-722.866
-841.619
-964.868
-896.883
-958.069
-1123.137
-1089.755
-1060.293
-1213.643
-1230.464
-1126.448
-1195.483
-1238.797
-1061.947
-977.883
-982.397
-770.396
-560.627
-536.215
-383.795
-137.716
-104.661
-88.222
100.249
147.569
72.447
182.680
263.256
147.073
161.834
281.405
202.856
130.336
253.722
238.162
116.364
193.065
254.767
122.234
121.572
237.231
155.323
88.634
212.537
200.056
77.455
158.367
226.668
104.750
116.016
228.366
137.525
62.287
184.089
173.874
61.722
147.583
216.369
89.962
104.424
225.535
147.389
82.087
205.572
193.472
80.496
166.786
231.028
110.815
122.523
240.718
158.895
94.169
220.600
205.015
87.614
169.352
232.345
108.908
118.474
224.925
151.109
92.969
221.786
207.677
86.040
167.504
230.033
105.778
118.918
230.579
143.557
75.383
199.881
187.855
69.552
158.597
222.617
98.902
109.397
222.310
134.170
71.559
193.631
175.551
57.544
141.094
213.039
91.143
105.355
218.020
130.315
69.476
194.428
179.144
53.566
123.969
162.743
13.208
-5.350
80.968
1.831
-37.235
89.965
67.994
-42.336
63.860
168.584
96.637
134.096
249.394
157.753
85.980
213.633
202.787
87.042
172.557
231.242
103.193
110.622
228.143
140.383
80.292
191.422
137.567
-47.227
-89.601
-272.097
-797.159
-1071.506
-813.537
-169.403
698.813
1485.866
1911.763
1905.036
1848.055
1661.071
1206.343
833.134
553.376
153.569
-112.270
-104.504
-189.096
-340.353
-279.835
-246.245
-393.471
-390.611
-298.941
-400.300
-481.728
-367.965
-392.089
-525.983
-465.082
-431.238
-581.893
-589.322
-505.829
-623.703
-713.953
-623.936
-677.959
-836.444
-786.678
-771.061
-943.245
-965.866
-902.262
-1033.473
-1135.940
-1047.323
-1093.331
-1229.426
-1156.988
-1096.477
-1195.975
-1131.253
-936.334
-918.587
-849.326
-584.054
-462.739
-439.876
-216.807
-46.108
-79.166
16.811
184.311
132.684
99.320
239.955
236.427
122.153
218.673
283.617
159.864
180.675
285.218
186.392
121.393
235.696
210.263
99.244
184.555
239.484
105.776
120.998
223.375
129.025
69.307
189.972
161.065
42.429
130.901
181.947
52.286
74.225
195.092
99.350
42.609
172.874
152.099
43.757
140.076
197.541
74.917
102.696
215.523
123.706
64.666
189.905
170.642
58.558
155.416
208.562
85.104
115.081
230.162
138.797
84.663
205.314
177.723
62.287
156.455
207.129
77.259
104.199
215.069
119.520
61.989
189.358
162.598
46.817
137.370
189.974
59.493
86.959
197.400
98.213
48.363
178.304
151.831
40.048
135.108
180.707
48.805
76.400
182.296
86.394
33.450
163.998
138.189
33.303
132.194
179.843
59.160
89.018
190.607
78.383
3.153
100.821
39.124
-98.579
-2.519
64.372
-57.551
-30.535
86.438
8.285
-5.388
166.020
165.469
61.607
150.145
196.975
68.377
91.311
201.953
108.270
50.820
173.425
141.331
30.653
129.670
172.638
34.056
35.705
84.431
-137.877
-421.094
-683.791
-1007.475
-999.314
-174.886
849.371
1410.865
1863.293
2067.189
1854.936
1570.384
1357.649
922.540
396.988
171.060
4.352
-241.094
-280.356
-208.880
-336.056
-405.795
-300.663
-350.215
-482.335
-404.760
-376.903
-524.656
-511.052
-423.187
-535.131
-602.719
-500.206
-557.965
-695.701
-626.788
-605.376
-762.548
-769.282
-703.621
-843.530
-937.855
-860.814
-939.599
-1098.664
-1054.827
-1049.197
-1217.582
-1214.728
-1131.983
-1245.459
-1296.641
-1153.758
-1139.806
-1164.816
-958.536
-777.985
-762.285
-581.602
-331.447
-296.419
-226.831
0.928
43.559
-9.018
137.161
214.992
108.832
160.709
275.761
175.144
128.070
255.754
218.918
104.008
195.464
235.520
104.240
134.734
241.352
138.879
92.010
213.292
175.902
66.977
171.425
210.772
80.808
121.747
225.109
112.824
61.595
190.708
158.669
51.317
147.376
186.463
55.553
93.759
201.614
100.642
58.562
182.198
145.944
44.251
153.356
200.549
71.991
111.088
213.537
114.506
79.969
211.825
177.817
70.531
164.625
203.408
77.622
114.609
221.584
128.934
89.657
220.954
183.627
72.764
175.852
215.082
86.925
123.648
228.908
128.136
87.986
214.390
171.721
70.267
175.474
219.323
94.807
132.595
233.269
129.453
89.054
221.095
181.064
79.125
186.792
226.330
95.109
133.518
232.022
132.158
97.602
223.571
181.679
59.648
138.617
148.024
-16.231
0.646
121.632
40.191
0.505
122.489
84.387
13.770
166.138
245.086
139.144
179.409
276.589
166.687
126.179
252.498
214.202
110.217
216.368
252.359
119.027
160.027
264.610
162.955
112.667
207.434
89.784
-160.206
-329.992
-708.285
-1096.162
-833.756
52.744
854.336
1456.261
2020.189
2045.696
1792.236
1647.499
1346.067
822.777
471.499
270.361
-35.841
-193.374
-126.103
-207.120
-336.933
-250.391
-230.482
-381.899
-364.031
-279.848
-397.520
-446.338
-334.891
-396.001
-518.023
-433.518
-421.740
-575.611
-564.130
-491.540
-627.753
-690.217
-597.223
-683.947
-832.369
-784.628
-801.249
-977.151
-977.574
-923.335
-1070.758
-1145.364
-1059.167
-1130.154
-1239.121
-1135.152
-1076.509
-1149.473
-1020.219
-805.783
-781.215
-672.783
-399.569
-311.500
-280.983
-54.246
73.015
19.672
125.456
270.163
194.841
182.491
318.071
269.361
171.882
281.706
313.169
184.353
226.613
313.700
199.149
167.122
294.107
243.248
134.848
236.657
257.214
122.363
165.483
263.203
158.520
123.195
243.230
192.308
91.496
193.645
219.808
91.944
141.700
235.378
125.482
104.921
234.597
186.058
89.734
195.277
225.172
103.960
155.511
251.654
146.612
121.122
250.207
198.064
97.677
203.679
233.177
105.499
154.844
248.915
146.158
129.814
261.330
212.213
111.859
228.173
256.957
128.549
181.103
272.701
160.518
133.415
257.737
204.897
104.777
215.397
243.572
119.052
173.383
268.259
154.827
126.408
248.501
198.084
107.550
215.171
235.354
112.322
166.628
260.872
147.179
117.471
247.888
202.964
111.698
210.015
210.066
66.132
95.165
148.675
12.322
-0.162
153.524
100.071
6.189
123.706
165.479
80.245
183.652
297.436
184.429
159.706
278.123
218.139
123.689
229.648
243.037
114.292
161.304
246.349
112.848
85.910
213.097
139.215
8.890
46.347
-72.922
-457.223
-803.429
-974.594
-864.985
-64.153
1012.736
1576.004
1881.952
2060.232
1940.287
1557.545
1275.193
965.317
447.103
110.104
35.364
-134.075
-287.090
-214.994
-220.681
-370.825
-334.669
-259.924
-390.442
-433.111
-329.576
-403.955
-512.122
-415.680
-414.769
-559.944
-526.053
-455.454
-588.898
-636.389
-546.478
-648.215
-780.258
-703.012
-718.881
-888.705
-883.879
-841.302
-999.657
-1064.247
-977.316
-1069.249
-1188.882
-1098.670
-1092.765
-1218.004
-1139.107
-998.034
-1023.571
-936.046
-688.790
-611.566
-557.523
-306.031
-168.341
-189.070
-34.293
132.257
70.454
94.250
254.463
214.793
135.124
257.102
275.542
153.804
215.443
298.823
174.466
146.066
262.505
193.524
103.478
218.332
235.863
113.095
169.497
249.040
130.505
111.220
228.976
161.085
69.381
180.717
193.123
71.032
129.121
204.709
89.164
77.671
196.774
129.713
45.876
161.352
176.100
49.854
114.953
204.343
93.780
85.076
211.623
153.455
66.867
183.569
195.298
68.939
131.194
215.115
103.856
95.195
221.230
157.542
70.463
185.847
203.824
78.849
139.035
224.032
112.853
100.128
223.965
160.512
76.928
192.800
205.221
86.326
147.970
227.756
104.127
93.093
223.852
162.020
79.084
195.920
205.836
81.775
151.221
230.665
118.860
112.580
234.907
168.001
82.596
195.129
204.195
83.557
148.363
220.071
107.501
103.949
223.765
137.536
27.908
125.031
92.069
-67.797
6.862
99.955
-17.648
-26.584
100.993
42.108
-5.647
169.158
200.221
71.346
146.236
235.874
115.643
111.111
235.666
167.686
87.370
205.812
212.835
80.682
150.287
236.812
112.062
68.333
106.047
-111.641
-455.589
-717.350
-946.321
-841.629
43.536
1096.947
1647.778
2020.032
2166.772
1946.786
1617.340
1377.922
949.210
405.492
157.759
29.897
-208.166
-273.024
-190.120
-287.658
-391.177
-303.086
-320.490
-463.897
-415.665
-356.138
-499.204
-522.099
-419.316
-511.807
-601.957
-497.218
-506.261
-642.331
-593.290
-546.358
-702.755
-744.465
-654.316
-771.043
-897.845
-831.964
-884.411
-1052.196
-1035.794
-1010.262
-1177.531
-1216.475
-1123.204
-1215.344
-1293.798
-1157.094
-1102.015
-1143.109
-959.267
-752.273
-725.229
-580.069
-313.800
-247.823
-206.650
15.830
98.098
43.101
160.024
265.157
163.880
182.076
315.765
236.508
158.635
288.607
285.428
151.868
222.649
286.489
151.575
146.213
258.151
176.376
97.495
220.018
216.505
97.529
170.715
237.220
106.609
107.147
228.533
149.392
70.786
197.376
193.535
70.256
153.792
233.280
110.196
109.277
231.641
160.845
91.509
219.224
206.520
80.854
173.076
256.506
132.901
134.196
259.149
176.588
99.281
227.181
228.113
106.058
190.812
264.624
140.828
142.247
257.890
179.659
106.746
224.627
224.937
113.473
198.147
269.762
148.370
155.680
269.248
184.297
112.956
233.799
226.190
107.469
198.352
270.146
143.377
149.526
262.643
184.132
110.170
232.196
233.446
112.778
194.445
263.174
138.183
147.792
261.012
177.280
103.037
223.128
210.550
77.300
132.435
165.282
-0.113
-18.931
110.928
56.356
-10.586
108.960
109.498
3.253
120.291
242.928
147.211
166.588
292.629
213.962
144.271
261.986
242.610
116.723
199.121
258.644
125.154
128.058
250.525
166.238
88.278
180.415
87.781
-162.944
-304.158
-607.909
-1020.627
-895.154
-42.131
890.596
1603.785
2167.917
2195.370
1935.740
1792.736
1499.987
928.763
483.959
250.375
-62.828
-249.560
-197.059
-253.645
-396.612
-336.441
-293.641
-431.561
-442.269
-354.251
-458.604
-527.220
-414.169
-450.988
-588.688
-517.632
-483.670
-631.085
-642.676
-558.898
-681.406
-780.322
-700.173
-756.332
-919.468
-880.681
-867.664
-1050.709
-1087.939
-1018.710
-1150.160
-1251.836
-1167.067
-1212.552
-1348.205
-1263.170
-1179.183
-1257.643
-1165.360
-946.111
-898.574
-812.193
-528.083
-390.604
-367.466
-145.815
23.467
-12.937
66.883
230.155
178.889
143.655
280.715
264.231
147.583
234.646
290.135
160.197
176.129
285.676
184.176
123.676
247.937
224.927
99.200
181.176
234.370
113.419
132.695
244.722
153.228
89.871
220.379
203.187
84.630
180.577
230.368
99.178
116.126
231.431
144.758
92.047
217.016
191.880
82.248
175.143
233.199
105.017
129.631
249.026
161.444
106.917
235.747
214.388
102.991
199.327
257.006
131.371
152.782
260.189
171.982
127.760
252.389
225.146
116.846
212.380
268.613
138.508
156.726
264.439
169.624
112.567
235.629
211.157
101.601
192.522
244.102
119.046
144.105
255.451
167.170
113.858
240.279
207.120
92.395
181.250
236.234
111.169
132.930
249.985
159.737
106.407
232.049
206.553
96.187
192.963
236.238
96.442
101.250
180.097
58.297
-22.392
92.436
82.198
-9.814
85.621
132.930
15.574
71.832
228.285
175.612
146.215
276.204
246.485
128.687
223.487
270.311
139.469
169.417
275.082
176.986
126.004
247.930
217.832
115.062
197.092
197.053
-31.338
-170.264
-359.127
-860.600
-1123.722
-685.315
151.162
991.825
1759.879
2192.577
2030.444
1874.196
1723.768
1271.036
797.082
507.868
165.763
-138.187
-145.587
-158.245
-324.202
-312.339
-223.969
-344.968
-412.414
-301.624
-347.523
-473.198
-392.822
-368.532
-516.965
-503.550
-419.757
-540.983
-610.816
-512.841
-572.724
-712.347
-649.547
-645.418
-815.574
-831.548
-770.687
-918.063
-1017.131
-940.519
-1020.975
-1174.374
-1123.672
-1119.920
-1272.928
-1252.194
-1146.385
-1217.521
-1204.653
-990.143
-904.972
-866.255
-619.112
-425.758
-407.613
-237.536
-12.893
-22.581
11.163
195.585
203.414
133.046
257.971
312.247
194.991
236.916
342.338
243.374
195.123
315.992
269.902
155.830
255.343
292.383
162.441
197.299
295.236
186.080
144.045
266.824
229.432
124.321
228.060
270.386
143.414
176.616
275.624
164.863
118.261
241.717
202.598
102.590
213.640
256.154
129.999
169.433
277.496
182.718
150.346
274.715
229.642
125.257
228.775
264.690
135.788
178.485
284.456
184.811
147.719
273.008
233.731
133.839
236.908
269.825
142.789
178.275
282.737
182.940
152.814
280.527
235.018
127.108
225.328
259.710
132.479
170.505
270.467
167.196
132.117
261.527
209.113
102.442
213.388
251.592
122.048
165.720
264.508
156.202
130.663
261.767
208.494
82.123
157.190
153.160
-20.191
6.358
122.351
42.550
14.753
141.144
100.762
14.324
163.555
243.905
137.951
190.723
282.993
174.464
138.899
264.567
217.459
117.379
221.497
245.676
117.348
163.309
255.535
148.840
104.139
193.419
67.998
-178.470
-346.983
-735.023
-1125.455
-861.451
34.956
846.415
1470.909
2043.400
2065.414
1806.338
1679.104
1381.517
854.610
498.088
276.439
-50.575
-208.318
-147.031
-231.515
-357.769
-273.448
-265.709
-412.122
-386.262
-306.178
-431.810
-482.649
-370.910
-434.801
-553.031
-464.225
-457.411
-601.350
-579.915
-514.958
-657.325
-722.764
-634.736
-727.489
-871.567
-811.525
-835.419
-1009.811
-1013.119
-972.336
-1131.120
-1200.173
-1111.094
-1186.563
-1297.093
-1193.326
-1141.029
-1212.449
-1077.598
-869.852
-842.454
-726.800
-457.818
-367.299
-332.362
-107.429
13.407
-30.651
85.925
223.508
143.398
143.164
285.291
235.004
144.965
255.474
277.432
149.707
204.245
286.174
166.709
136.349
255.895
193.760
94.953
207.515
234.389
104.505
154.116
242.692
130.931
112.774
237.336
175.911
80.576
189.963
210.221
78.389
130.642
222.538
109.157
91.052
224.821
171.339
80.309
194.814
213.709
85.975
147.600
239.820
119.886
104.476
231.661
174.269
86.430
203.930
225.346
97.139
158.941
246.663
132.197
115.043
249.347
194.266
104.236
219.395
239.934
112.338
167.807
258.777
143.122
121.867
249.334
191.245
97.804
217.247
234.326
108.458
170.901
259.958
143.612
126.610
253.907
191.744
103.135
217.400
230.418
109.725
180.646
264.293
128.822
88.887
188.551
89.825
-23.477
82.887
118.377
8.512
67.312
155.345
52.175
59.471
237.144
211.454
140.589
261.160
271.410
143.481
205.784
289.688
169.921
150.915
270.972
206.084
115.946
225.723
236.090
106.639
137.396
170.490
-52.316
-257.499
-473.367
-908.860
-1092.661
-476.225
480.987
1171.552
1787.873
2144.948
1956.935
1751.055
1588.947
1149.691
643.282
389.733
133.702
-162.365
-185.817
-147.338
-297.492
-329.945
-226.291
-314.255
-424.156
-327.391
-330.281
-466.900
-410.159
-343.831
-483.101
-516.534
-413.480
-500.627
-611.728
-522.029
-538.906
-696.517
-661.977
-613.203
-771.345
-834.935
-762.554
-880.571
-1017.417
-952.122
-984.217
-1146.539
-1119.825
-1069.336
-1210.440
-1226.573
-1092.677
-1128.939
-1146.866
-940.128
-814.641
-801.795
-584.694
-357.004
-334.223
-216.919
14.322
33.280
20.939
194.976
241.622
145.221
227.291
319.603
206.940
201.098
320.839
253.939
165.396
275.724
276.173
144.615
204.517
279.478
157.913
152.106
272.949
198.671
113.369
228.812
229.782
101.396
174.700
254.186
127.733
114.187
241.584
168.703
87.037
203.397
208.362
86.021
158.441
234.289
114.697
116.394
245.830
177.849
90.459
209.994
217.461
95.430
160.225
242.193
125.932
124.006
245.696
177.631
100.025
215.915
222.606
106.342
183.827
255.810
131.960
132.173
251.797
177.992
99.419
217.247
214.977
95.448
178.102
262.836
138.798
131.392
248.700
166.902
88.039
214.075
219.961
102.995
179.704
256.452
137.587
144.956
267.709
184.248
84.916
175.328
134.130
-22.995
37.873
129.494
31.555
33.754
144.633
67.468
4.187
159.079
213.215
125.025
207.379
282.268
153.473
151.030
270.590
194.014
119.089
240.812
229.288
102.031
176.232
247.968
123.028
112.836
193.837
39.223
-183.705
-336.564
-756.902
-1132.006
-823.313
52.221
880.557
1544.429
2075.405
2043.522
1817.023
1685.371
1335.157
805.557
482.434
237.161
-91.344
-190.155
-131.841
-254.312
-352.363
-249.713
-279.686
-413.850
-354.774
-303.077
-439.654
-450.103
-353.280
-450.156
-539.641
-440.834
-472.439
-613.560
-560.048
-521.565
-672.821
-703.394
-628.360
-749.904
-866.934
-796.953
-845.108
-1006.898
-974.456
-955.657
-1119.143
-1150.007
-1070.177
-1177.795
-1257.739
-1137.367
-1117.329
-1182.370
-1019.421
-839.457
-828.323
-675.083
-403.281
-343.324
-283.018
-42.871
41.463
-0.091
141.293
254.208
160.306
191.750
323.969
250.437
186.956
313.758
300.709
177.557
257.854
317.655
187.814
191.421
297.319
204.047
137.410
261.426
246.638
119.001
200.955
265.354
137.732
150.977
268.727
185.311
116.971
234.594
224.898
110.816
195.206
253.575
122.917
138.509
255.199
176.518
112.646
242.920
240.438
126.350
214.367
279.515
149.343
166.929
288.337
207.253
147.437
276.306
266.593
147.889
231.722
294.988
169.462
182.306
289.872
200.508
149.173
279.742
260.235
140.698
227.938
285.412
157.843
174.998
290.173
195.110
134.186
260.252
245.374
124.387
213.967
272.845
147.296
159.733
265.951
181.368
126.571
259.673
239.804
116.599
186.445
220.477
60.908
38.930
124.144
46.995
13.663
149.991
126.724
9.212
108.701
195.027
127.464
188.537
313.019
213.874
157.037
278.393
256.347
139.396
229.557
286.092
157.634
175.689
285.821
189.887
127.942
247.329
192.145
17.816
-10.479
-176.096
-678.640
-991.231
-849.511
-301.211
651.048
1567.567
2022.934
2054.698
2029.224
1852.481
1389.645
1004.559
693.116
252.226
-41.104
-50.988
-143.416
-294.415
-229.176
-202.589
-350.065
-350.960
-256.786
-369.760
-441.347
-328.847
-369.784
-508.292
-436.616
-403.383
-546.649
-547.328
-460.748
-575.061
-655.593
-564.332
-633.436
-792.386
-745.137
-742.576
-913.655
-938.172
-890.665
-1035.764
-1130.574
-1043.892
-1108.278
-1248.873
-1177.566
-1132.211
-1239.229
-1172.346
-989.760
-987.057
-911.586
-640.972
-517.397
-483.267
-245.766
-70.380
-93.812
24.351
200.148
151.641
138.430
289.657
277.101
174.101
270.779
318.291
186.105
207.211
309.633
214.260
164.190
282.243
248.091
136.184
224.938
267.940
140.337
172.027
278.664
172.840
121.378
246.752
212.191
103.958
199.720
246.032
124.745
149.386
249.338
149.372
106.527
232.656
206.629
107.332
211.328
258.576
128.581
169.770
279.541
182.005
133.129
260.838
230.802
119.959
228.535
277.460
148.450
178.831
283.406
182.179
135.539
266.008
238.959
133.519
230.276
272.461
145.191
178.506
282.365
183.731
141.128
267.686
235.937
128.812
221.966
264.022
138.902
178.633
279.969
178.524
134.098
260.446
223.325
121.978
225.442
264.894
139.332
173.995
266.169
142.629
73.592
161.586
88.278
-24.516
96.245
146.165
13.126
53.311
164.876
91.259
105.661
268.622
241.402
140.305
247.648
284.277
150.015
186.804
290.385
180.142
133.766
