-82.226
-61.683
-39.705
-29.887
-25.795
-24.798
-48.919
-63.311
-48.694
-26.519
-11.745
-3.836
3.868
5.450
1.491
-2.836
-12.997
-12.181
10.701
48.565
84.869
116.533
147.727
175.672
198.766
224.856
247.194
273.668
312.842
349.729
383.925
417.148
446.752
472.500
501.690
533.193
572.680
608.781
648.582
684.712
712.027
732.107
750.147
759.521
769.941
783.729
792.621
787.066
762.564
703.434
595.637
445.845
278.396
110.728
-38.870
-165.088
-263.145
-320.027
-347.740
-355.146
-349.131
-333.381
-306.690
-272.744
-237.255
-206.235
-179.064
-156.276
-133.488
-110.860
-95.121
-83.660
-69.872
-60.612
-47.326
-33.447
-19.776
-13.030
-0.540
19.424
37.745
59.157
85.766
106.663
118.409
136.024
151.037
166.722
182.298
191.290
193.145
195.899
197.563
204.226
203.167
202.405
207.367
218.073
238.238
249.864
260.944
276.040
290.393
305.957
315.109
327.645
343.355
360.329
378.986
403.617
424.832
437.177
454.372
468.125
475.262
483.021
487.121
480.814
480.000
477.778
476.803
481.834
489.845
502.266
511.637
510.478
505.133
498.693
494.969
488.578
478.292
497.996
556.922
626.249
680.179
731.115
771.011
792.688
799.354
805.103
812.972
825.121
839.349
838.699
821.570
803.710
791.286
780.185
766.786
756.151
750.344
744.301
776.646
868.719
1037.673
1379.163
1765.245
2152.597
2454.024
2115.256
1429.298
1001.539
802.225
687.139
565.070
440.747
381.561
383.291
423.814
476.987
527.813
571.455
605.013
635.925
660.914
679.000
682.538
677.176
687.070
737.419
862.075
971.872
1056.013
1111.490
1118.466
1131.557
1153.007
1154.426
1134.600
1096.965
1044.146
983.689
923.818
853.140
800.328
775.250
761.573
750.941
749.263
752.520
758.501
759.502
769.655
779.458
787.901
796.528
804.728
813.381
828.484
839.706
832.507
811.690
796.113
763.485
718.152
647.990
538.093
403.399
268.888
142.229
26.582
-78.638
-169.955
-259.502
-330.037
-380.352
-420.888
-447.941
-468.259
-488.849
-514.593
-536.244
-552.163
-570.302
-591.834
-606.282
-626.157
-646.367
-670.568
-692.041
-708.020
-729.411
-756.353
-790.160
-823.428
-855.358
-886.572
-911.803
-939.481
-966.492
-988.818
-1008.771
-1015.609
-1029.997
-1045.247
-1057.510
-1073.342
-1092.424
-1108.795
-1113.446
-1110.841
-1099.715
-1088.048
-1080.119
-1071.509
-1055.899
-1048.026
-1041.745
-1032.889
-1026.286
-1023.813
-1021.698
-1009.434
-995.413
-977.921
-954.028
-928.354
-914.770
-897.733
-875.671
-852.009
-830.165
-806.338
-785.416
-769.620
-745.756
-719.053
-704.613
-686.774
-663.677
-649.758
-632.896
-621.185
-615.019
-602.959
-589.592
-587.784
-570.552
-516.124
-438.029
-376.824
-334.440
-307.467
-300.034
-320.157
-340.098
-351.843
-361.462
-362.248
-372.203
-386.834
-410.631
-427.426
-447.697
-473.544
-490.188
-504.489
-507.968
-450.843
-339.361
-138.892
194.569
503.642
830.661
966.540
595.378
140.644
-65.329
-169.389
-238.455
-323.640
-423.444
-478.608
-493.200
-489.769
-476.492
-460.893
-447.839
-424.315
-398.575
-367.938
-330.471
-271.431
-188.974
-119.235
-73.325
-43.405
-24.858
4.703
37.375
58.637
74.688
91.047
90.250
78.162
78.734
78.346
70.716
61.482
48.755
26.090
-2.031
-46.491
-109.144
-187.521
-255.156
-312.939
-365.939
-401.070
-423.828
-446.904
-452.293
-443.807
-435.691
-419.814
-398.308
-375.760
-344.099
-300.245
-261.119
-240.684
-256.858
-297.891
-370.381
-466.216
-560.182
-646.351
-730.637
-800.263
-850.468
-891.738
-916.418
-925.036
-930.264
-924.686
-922.551
-911.593
-899.051
-879.440
-853.438
-832.079
-811.188
-780.137
-753.024
-728.444
-699.744
-670.951
-644.789
-606.575
-573.119
-543.163
-515.213
-479.787
-443.883
-417.846
-394.226
-366.856
-345.395
-323.964
-304.872
-289.619
-272.312
-258.232
-258.843
-258.819
-254.329
-251.403
-253.813
-251.585
-250.491
-247.077
-243.770
-242.547
-247.462
-253.664
-261.946
-271.083
-282.454
-291.956
-305.948
-324.752
-339.582
-350.157
-360.124
-373.581
-384.776
-387.801
-395.715
-400.917
-415.876
-435.206
-450.790
-458.090
-465.276
-446.717
-358.187
-251.774
-186.477
-148.631
-141.469
-165.446
-216.468
-278.119
-344.814
-411.931
-466.026
-517.549
-568.218
-611.905
-649.048
-693.025
-729.413
-758.744
-771.651
-770.936
-717.725
-595.430
-426.236
-96.247
276.665
627.989
909.573
731.358
284.164
9.417
-136.855
-228.093
-315.979
-402.556
-455.185
-472.573
-462.000
-441.575
-423.043
-409.745
-390.532
-374.099
-364.034
-344.913
-326.898
-303.112
-282.707
-266.365
-242.366
-213.742
-183.780
-164.440
-142.597
-113.528
-87.385
-58.730
-33.520
-7.989
13.828
27.690
57.607
86.625
104.592
133.210
161.775
182.872
212.364
244.005
277.124
307.485
345.536
387.657
430.969
477.637
513.538
537.328
560.209
581.830
596.997
607.702
618.647
614.298
584.861
528.723
437.705
313.340
175.800
39.024
-87.532
-198.581
-293.461
-357.726
-400.341
-426.699
-438.101
-442.040
-442.220
-438.075
-431.238
-429.238
-419.831
-401.628
-390.225
-381.826
-370.486
-360.089
-344.525
-328.743
-314.149
-295.655
-271.666
-256.431
-251.415
-249.574
-244.381
-243.564
-252.136
-264.933
-268.884
-266.935
-263.590
-268.116
-275.000
-277.977
-274.585
-275.637
-276.715
-266.029
-259.436
-251.221
-239.307
-235.260
-235.314
-225.566
-212.217
-208.546
-215.091
-216.056
-218.457
-213.599
-204.231
-200.316
-203.438
-200.900
-191.435
-184.586
-191.806
-210.049
-220.013
-228.390
-239.398
-243.259
-216.774
-177.308
-149.433
-130.950
-112.584
-101.025
-111.287
-130.363
-144.554
-150.014
-147.679
-139.078
-136.109
-138.712
-136.091
-129.642
-125.586
-130.556
-128.765
-127.249
-91.954
-3.510
141.721
455.110
825.399
1175.169
1424.560
1174.046
648.678
316.343
125.749
11.830
-88.026
-192.544
-266.163
-286.765
-279.204
-263.285
-244.502
-226.416
-215.515
-202.127
-189.552
-181.729
-172.859
-155.955
-140.861
-134.742
-117.588
-102.260
-92.623
-83.993
-72.959
-69.825
-64.028
-50.579
-36.789
-23.067
-8.061
9.345
27.854
49.845
78.695
101.258
125.247
152.023
179.245
210.963
249.627
289.528
330.593
370.058
410.467
445.926
478.466
515.239
545.199
572.537
596.883
613.031
623.077
621.658
599.232
536.183
435.741
308.671
172.290
38.599
-81.917
-181.676
-259.099
-321.576
-358.930
-379.212
-387.004
-385.535
-378.349
-367.568
-350.607
-339.055
-330.835
-319.970
-300.961
-291.402
-279.683
-259.431
-244.819
-231.773
-205.943
-174.558
-155.962
-150.544
-144.746
-138.856
-137.528
-135.054
-134.033
-134.422
-127.636
-114.517
-112.447
-109.465
-105.626
-104.238
-103.259
-103.493
-104.174
-108.438
-107.673
-109.245
-115.069
-115.177
-108.256
-107.456
-111.766
-109.012
-106.403
-106.415
-106.896
-103.429
-108.151
-110.018
-107.276
-103.777
-101.073
-97.885
-98.644
-98.492
-98.279
-95.399
-97.931
-97.722
-92.710
-97.175
-107.749
-118.585
-128.878
-139.039
-154.707
-174.394
-170.622
-136.815
-94.221
-65.467
-45.918
-30.451
-33.053
-57.099
-72.238
-76.628
-81.436
-86.106
-79.544
-79.861
-74.730
-65.121
-61.774
-63.730
-58.132
-55.491
-57.250
-13.455
75.636
253.634
637.458
1069.882
1482.378
1705.005
1311.120
707.288
346.369
154.598
41.422
-80.026
-193.643
-248.588
-257.955
-249.222
-234.295
-218.167
-201.803
-182.126
-165.601
-152.513
-141.925
-124.738
-114.971
-103.860
-89.456
-74.266
-61.935
-52.424
-40.366
-30.175
-21.483
-6.047
6.907
15.799
30.716
44.535
57.735
78.547
99.210
118.452
141.447
168.635
196.248
223.587
256.168
293.337
330.549
371.146
414.056
456.959
495.177
537.455
569.429
600.955
636.625
667.467
687.991
699.714
697.113
664.295
596.030
492.486
364.933
228.395
98.993
-14.293
-119.375
-201.060
-258.681
-298.807
-323.214
-333.620
-338.897
-334.067
-323.962
-313.218
-304.783
-291.655
-272.445
-256.722
-244.015
-228.682
-212.273
-200.636
-189.300
-179.030
-177.410
-172.140
-161.330
-153.895
-145.978
-137.619
-128.105
-123.522
-120.203
-115.634
-119.862
-116.048
-110.653
-111.978
-113.965
-108.329
-106.212
-109.659
-107.570
-107.419
-108.434
-105.844
-107.626
-109.544
-113.968
-112.846
-109.091
-108.669
-102.263
-100.822
-99.228
-95.022
-93.302
-95.131
-97.400
-95.410
-97.963
-99.330
-96.797
-90.614
-90.491
-87.728
-84.540
-84.491
-81.702
-81.293
-81.542
-80.426
-75.256
-71.444
-73.226
-74.964
-72.274
-77.195
-78.551
-75.375
-77.722
-80.237
-85.623
-99.108
-122.176
-140.420
-154.739
-163.876
-141.219
-94.308
-53.045
-33.033
-21.983
-16.016
-24.752
-46.033
-66.607
-77.985
-80.682
-76.013
-71.301
-69.969
-63.223
-54.902
-52.000
-48.031
-43.823
-51.048
-48.520
12.149
120.830
366.863
795.514
1270.610
1732.025
1814.008
1245.177
636.691
304.852
144.485
15.189
-120.568
-212.411
-232.303
-221.874
-199.105
-182.183
-170.992
-163.861
-153.260
-145.170
-133.127
-118.297
-105.959
-99.628
-88.186
-75.851
-69.990
-61.751
-46.400
-34.292
-23.778
-10.982
0.718
10.880
22.273
39.119
58.083
73.622
94.070
120.190
146.410
176.128
207.918
237.644
271.806
306.114
338.326
372.392
415.536
462.444
503.332
544.631
581.752
610.932
642.694
668.659
688.077
707.514
723.617
719.942
691.901
628.297
526.029
396.875
259.589
124.311
-0.167
-104.063
-187.757
-253.265
-301.269
-328.535
-340.879
-347.899
-345.038
-332.659
-323.353
-312.402
-297.768
-282.092
-269.165
-253.921
-241.043
-232.570
-224.964
-216.089
-209.446
-206.462
-198.490
-188.094
-180.581
-173.179
-164.995
-157.269
-148.099
-145.846
-149.265
-149.450
-145.766
-146.143
-149.256
-144.604
-139.777
-138.821
-138.991
-134.617
-134.221
-134.624
-132.033
-130.470
-131.841
-133.929
-129.547
-127.526
-127.846
-127.256
-127.539
-131.241
-126.555
-124.804
-121.464
-118.228
-117.891
-121.724
-120.352
-114.725
-115.061
-113.753
-107.422
-104.885
-107.167
-108.683
-109.919
-112.270
-107.403
-106.808
-103.159
-107.167
-106.132
-106.033
-109.007
-106.422
-106.383
-107.713
-111.169
-110.804
-112.212
-108.784
-108.540
-107.637
-108.529
-106.565
-101.667
-105.179
-106.588
-104.471
-104.288
-101.548
-96.048
-93.829
-97.167
-100.192
-100.259
-99.413
-99.740
-94.355
-105.312
-124.078
-136.113
-149.111
-164.122
-169.998
-147.526
-107.618
-66.221
-38.273
-28.141
-24.188
-33.148
-61.972
-82.685
-87.966
-87.620
-86.536
-88.543
-82.404
-85.028
-85.292
-78.189
-73.690
-77.054
-78.530
-66.195
-1.827
125.884
400.802
820.902
1271.408
1716.471
1731.498
1104.998
506.672
215.374
90.629
-12.872
-135.134
-229.926
-261.843
-259.414
-244.509
-227.534
-204.121
-182.439
-168.668
-153.291
-136.080
-123.548
-116.002
-104.658
-92.727
-76.529
-61.594
-51.071
-42.180
-29.040
-10.463
0.816
12.776
32.807
50.482
60.151
78.170
102.616
118.143
142.284
161.214
180.366
206.107
237.095
270.807
300.733
331.469
365.719
405.059
445.331
489.033
529.774
563.808
601.730
636.492
663.883
682.797
699.014
710.673
719.812
710.966
670.172
590.490
485.855
359.486
219.284
83.601
-39.675
-144.531
-225.287
-282.292
-322.818
-347.801
-354.975
-354.760
-348.446
-335.158
-324.101
-309.598
-292.037
-270.419
-255.039
-244.565
-234.896
-223.119
-211.546
-198.181
-190.357
-186.751
-177.014
-166.176
-158.212
-156.220
-148.815
-143.109
-143.622
-143.580
-140.159
-135.073
-131.141
-128.388
-131.813
-133.612
-130.726
-127.185
-130.770
-126.902
-124.828
-130.341
-132.497
-131.662
-130.061
-126.059
-122.901
-125.044
-131.263
-128.557
-126.586
-130.106
-133.715
-135.563
-132.940
-132.883
-127.428
-125.907
-126.407
-127.039
-126.076
-125.346
-124.251
-119.532
-117.362
-115.213
-109.517
-110.366
-113.983
-111.870
-106.043
-106.883
-111.380
-106.418
-105.022
-103.548
-101.974
-101.936
-100.772
-96.073
-97.253
-100.183
-95.723
-91.683
-95.724
-98.151
-93.452
-97.346
-109.680
-119.786
-133.902
-149.450
-168.252
-168.037
-142.498
-95.483
-55.229
-30.868
-17.350
-16.505
-39.172
-66.602
-84.831
-84.876
-83.772
-86.765
-84.766
-83.665
-87.075
-82.548
-75.516
-71.746
-71.575
-67.118
-23.881
75.642
262.208
598.280
946.310
1321.611
1585.128
1230.761
618.818
277.934
121.591
45.214
-44.246
-143.673
-203.273
-214.862
-211.318
-200.267
-184.533
-167.727
-153.290
-139.519
-122.761
-112.581
-104.869
-97.233
-84.679
-73.603
-63.718
-53.974
-42.658
-27.438
-8.622
3.472
15.149
23.808
34.165
48.948
65.662
85.749
105.407
124.516
148.839
174.156
196.853
220.066
245.451
278.685
315.363
350.142
383.713
423.461
468.360
511.751
549.922
589.594
618.677
642.157
668.365
690.919
706.847
718.502
714.282
683.985
619.244
524.197
401.216
260.090
123.811
-1.253
-111.737
-205.173
-268.024
-315.742
-348.636
-362.241
-362.413
-358.820
-350.339
-337.496
-325.096
-310.810
-291.127
-275.917
-265.824
-250.559
-234.390
-219.144
-200.340
-185.366
-177.695
-169.258
-153.686
-143.731
-138.279
-130.940
-126.049
-122.706
-119.249
-112.567
-110.474
-112.871
-111.773
-116.843
-120.373
-120.316
-117.367
-119.580
-121.628
-123.524
-126.071
-125.411
-124.121
-122.220
-121.168
-120.682
-123.499
-131.046
-127.201
-114.092
-108.995
-110.905
-109.801
-110.049
-109.039
-103.562
-95.637
-99.308
-98.755
-96.858
-102.655
-103.895
-98.870
-96.996
-98.010
-100.740
-98.054
-101.312
-99.330
-95.269
-94.211
-95.046
-91.358
-89.907
-90.367
-85.690
-85.236
-83.986
-84.928
-90.206
-109.720
-126.576
-135.069
-145.436
-158.288
-152.825
-118.660
-67.858
-32.414
-14.435
-14.580
-24.169
-44.333
-69.905
-80.704
-79.702
-78.824
-77.998
-74.115
-70.668
-69.770
-67.765
-63.188
-61.264
-64.341
-54.115
10.827
121.276
347.353
705.431
1046.445
1397.693
1440.666
960.321
462.533
207.586
86.948
6.399
-84.653
-172.946
-212.702
-216.232
-200.090
-184.371
-168.443
-150.156
-135.727
-125.393
-113.426
-97.041
-87.497
-79.558
-68.997
-56.117
-45.134
-32.601
-22.956
-13.838
2.243
15.089
21.722
34.140
53.872
71.988
87.957
107.702
124.726
142.832
166.235
191.335
211.896
236.291
267.867
298.764
331.032
369.922
412.131
456.603
501.031
546.635
583.825
618.240
653.754
681.918
706.887
729.282
744.759
751.943
734.397
683.473
595.790
476.836
337.409
198.930
63.637
-54.244
-152.767
-233.560
-289.800
-318.361
-341.753
-351.560
-351.473
-345.998
-340.241
-330.558
-315.189
-303.298
-290.743
-273.538
-259.845
-248.479
-231.769
-217.764
-209.365
-196.070
-184.540
-173.228
-158.996
-144.702
-135.759
-125.442
-115.193
-115.744
-115.109
-107.748
-98.185
-96.297
-98.716
-98.234
-101.983
-101.585
-98.707
-99.887
-104.985
-99.647
-92.800
-92.136
-97.844
-94.786
-91.534
-97.246
-96.312
-93.844
-91.319
-89.901
-88.164
-93.332
-95.434
-94.486
-93.805
-94.877
-92.524
-88.474
-89.211
-88.570
-85.436
-87.608
-87.092
-82.558
-83.612
-84.086
-80.878
-82.290
-84.329
-83.250
-81.496
-78.308
-71.251
-73.483
-80.891
-91.507
-97.136
-109.078
-123.167
-136.852
-154.581
-156.159
-122.666
-71.054
-34.645
-14.700
-3.790
-5.435
-25.082
-47.514
-59.443
-67.289
-70.555
-66.767
-64.925
-64.784
-58.781
-55.334
-53.476
-48.066
-44.257
-48.105
-20.883
67.483
231.917
585.189
1001.568
1428.429
1763.828
1463.059
821.585
412.104
213.260
111.681
-6.234
-127.578
-198.300
-213.539
-207.942
-191.265
-175.719
-160.211
-141.418
-122.080
-108.599
-100.676
-89.763
-81.796
-70.039
-61.892
-52.648
-47.131
-39.906
-29.477
-17.021
-9.046
0.172
9.840
20.542
34.465
53.838
69.077
84.679
105.276
124.260
144.219
170.372
198.495
231.173
268.651
307.381
345.253
389.420
436.294
481.868
526.541
570.811
610.096
643.554
680.097
709.535
726.722
744.221
758.914
744.501
699.464
621.931
505.362
370.937
232.903
100.080
-24.419
-127.336
-203.275
-260.475
-298.609
-320.007
-329.367
-330.051
-318.672
-303.177
-290.454
-276.505
-259.081
-243.667
-227.233
-209.068
-196.272
-184.840
-170.048
-158.969
-150.950
-144.446
-135.952
-128.248
-123.410
-119.356
-114.287
-111.790
-108.740
-106.657
-103.800
-99.487
-95.959
-97.852
-99.760
-98.402
-93.351
-92.618
-93.530
-93.345
-98.202
-100.739
-100.000
-105.484
-107.144
-100.996
-96.789
-88.425
-71.323
-52.924
-43.783
-35.129
-28.106
-29.421
-33.651
-31.278
-32.724
-34.251
-36.648
-36.144
-38.866
-43.333
-48.649
-60.963
-74.316
-80.055
-84.354
-92.443
-95.833
-97.003
-98.571
-99.052
-96.969
-101.086
-101.109
-98.247
-97.865
-101.501
-98.523
-94.822
-98.931
-96.639
-94.364
-92.194
-90.958
-89.323
-89.712
-93.198
-100.352
-111.193
-125.306
-136.082
-145.474
-159.574
-145.544
-99.171
-52.037
-21.405
-0.318
12.203
2.634
-19.398
-37.828
-46.976
-52.854
-51.829
-51.648
-53.854
-53.377
-51.283
-48.723
-45.907
-43.489
-45.143
-36.746
33.301
154.308
404.903
812.149
1254.078
1688.200
1784.605
1228.508
614.124
307.185
179.394
77.057
-47.773
-150.873
-190.548
-192.748
-181.104
-167.574
-151.264
-134.810
-118.748
-102.370
-85.095
-68.692
-51.323
-28.420
7.079
37.908
59.228
85.058
118.004
145.577
168.032
187.819
201.645
212.699
227.480
247.592
263.926
282.280
298.167
314.147
325.188
336.910
339.187
328.458
316.720
308.915
298.119
287.859
290.293
303.846
321.583
354.033
399.647
445.410
484.944
532.602
581.537
626.603
661.250
689.192
699.872
671.242
598.958
487.021
354.539
215.840
76.334
-44.773
-143.264
-217.042
-275.174
-309.215
-324.498
-327.640
-322.714
-307.523
-288.665
-269.102
-247.334
-227.208
-212.594
-195.552
-174.988
-158.411
-145.198
-131.792
-119.104
-105.689
-88.369
-79.620
-71.115
-63.317
-51.438
-50.003
-42.693
-35.486
-34.781
-34.212
-32.342
-30.405
-31.774
-34.604
-37.001
-42.469
-50.154
-57.051
-70.922
-89.321
-106.418
-125.628
-146.040
-159.139
-165.172
-170.343
-166.103
-151.449
-134.748
-115.574
-95.376
-83.817
-76.901
-67.274
-54.946
-49.608
-45.978
-36.153
-28.231
-31.869
-37.602
-47.327
-66.056
-82.196
-96.329
-107.932
-113.369
-114.031
-112.808
-114.953
-116.262
-119.285
-129.206
-134.585
-136.394
-135.477
-132.601
-123.696
-113.942
-101.431
-88.620
-79.611
-72.071
-65.404
-58.367
-48.202
-43.508
-34.973
-24.223
-12.771
0.924
12.406
31.531
67.973
142.822
242.255
322.562
391.593
453.566
519.060
603.084
700.823
794.952
858.498
878.793
866.078
833.337
788.558
737.245
695.131
666.725
645.973
623.249
612.317
606.148
599.781
600.440
604.066
608.190
607.727
603.790
631.899
714.425
894.677
1230.366
1587.506
1936.795
2076.848
1528.873
799.832
399.115
208.290
70.124
-83.807
-223.321
-310.458
-352.960
-365.592
-360.397
-343.783
-315.051
-284.852
-262.281
-239.013
-217.950
-202.945
-187.379
-169.660
-158.482
-144.809
-124.756
-101.911
-78.495
-51.465
-24.828
-2.555
21.726
50.831
76.769
99.502
123.654
146.154
165.247
186.312
205.310
221.335
240.511
270.524
302.281
331.649
359.452
391.860
424.533
462.460
504.647
538.590
569.745
594.301
611.550
625.858
637.562
647.720
651.816
648.254
621.013
559.695
464.706
338.570
198.330
58.112
-66.409
-173.177
-260.807
-314.007
-341.876
-354.401
-357.436
-343.783
-314.301
-264.413
-204.669
-122.942
-41.936
26.050
83.393
133.720
174.818
215.648
254.287
288.262
316.073
339.042
356.298
380.907
399.202
410.523
415.335
421.000
425.030
426.902
431.002
431.797
433.937
432.763
430.504
418.743
404.748
390.538
372.294
345.029
313.804
275.438
230.447
182.440
133.877
83.272
34.811
-12.464
-61.794
-113.130
-159.344
-200.667
-242.191
-282.460
-329.103
-389.990
-461.373
-526.544
-574.100
-605.543
-615.655
-624.940
-661.461
-736.944
-826.369
-894.896
-928.432
-928.383
-911.420
-881.515
-846.660
-805.569
-764.365
-719.584
-675.893
-639.736
-599.148
-558.688
-523.670
-493.689
-458.754
-427.860
-398.182
-363.374
-328.681
-297.726
-263.082
-227.843
-195.820
-158.900
-115.924
-86.107
-65.909
-43.590
-30.845
4.268
60.917
98.265
132.467
169.842
200.949
229.015
243.356
248.407
251.510
259.904
276.062
298.343
320.052
346.533
368.437
376.742
381.829
390.366
402.660
412.443
429.250
496.780
642.862
878.466
1255.375
1632.005
2015.787
2327.117
2055.342
1524.395
1245.856
1135.879
1084.265
1007.418
912.481
846.512
823.638
821.361
823.279
823.697
823.954
825.512
823.990
821.529
820.201
813.768
797.665
784.654
774.970
756.295
735.143
709.436
682.302
657.672
637.652
618.404
597.734
574.754
552.365
525.380
501.367
479.332
458.479
436.350
417.461
405.923
398.065
399.802
403.177
408.345
423.650
442.951
462.942
479.383
496.722
516.237
539.680
570.428
602.648
637.948
682.162
728.385
770.700
797.233
797.799
756.476
667.847
540.113
389.477
220.489
51.561
-103.380
-238.337
-346.018
-420.987
-480.675
-521.892
-542.081
-548.506
-554.034
-550.649
-539.194
-531.035
-519.115
-506.968
-497.612
-490.501
-482.130
-477.373
-481.828
-493.891
-506.408
-530.214
-556.158
-576.807
-590.385
-599.810
-602.011
-600.138
-598.219
-596.327
-588.930
-576.051
-560.510
-546.352
-521.865
-495.926
-470.340
-434.657
-401.474
-359.661
-309.229
-251.198
-182.227
-96.946
15.319
137.389
255.065
377.610
492.442
600.950
696.771
774.421
836.217
875.313
889.906
883.299
866.728
847.598
813.009
780.334
749.277
713.206
675.349
646.926
618.765
589.157
563.131
535.986
493.929
443.336
392.961
337.639
283.783
234.342
184.566
131.669
78.556
30.676
-17.526
-61.902
-103.236
-151.068
-216.443
-297.606
-388.145
-484.204
-570.216
-645.431
-701.529
-751.190
-835.500
-938.986
-1014.774
-1038.714
-1039.245
-1033.290
-1020.612
-995.513
-971.409
-950.131
-912.641
-865.831
-817.474
-765.228
-723.418
-688.138
-655.873
-624.574
-594.153
-567.633
-532.833
-493.675
-410.105
-275.376
-47.895
322.254
678.964
1050.590
1231.417
842.559
321.015
59.776
-51.904
-104.537
-175.835
-259.808
-294.699
-289.788
-272.576
-254.401
-238.916
-229.448
-222.601
-211.070
-204.524
-202.877
-200.265
-199.296
-195.483
-182.912
-166.414
-150.497
-137.322
-119.068
-98.713
-80.277
-61.265
-39.461
-13.517
16.332
59.467
106.454
149.623
208.659
295.098
419.969
570.826
744.094
903.036
1023.985
1102.955
1140.410
1151.033
1144.716
1124.102
1091.196
1054.627
1013.595
970.961
926.310
880.017
830.901
781.213
730.201
662.344
566.399
439.969
289.162
110.256
-84.518
-270.402
-447.084
-611.232
-747.013
-857.364
-949.080
-1020.301
-1073.391
-1116.325
-1152.476
-1172.227
-1180.794
-1178.380
-1165.162
-1147.645
-1124.636
-1091.769
-1060.262
-1029.456
-994.873
-957.681
-923.222
-887.772
-852.095
-823.705
-797.850
-772.318
-747.984
-729.719
-720.438
-717.037
-712.383
-711.385
-703.909
-693.544
-684.125
-672.503
-665.448
-661.166
-653.772
-644.215
-635.097
-624.500
-610.208
-590.742
-574.357
-554.831
-534.796
-518.383
-500.671
-480.219
-464.406
-450.953
-433.203
-419.073
-407.410
-393.080
-382.976
-372.164
-360.273
-348.024
-337.561
-330.188
-320.066
-311.975
-309.600
-302.149
-294.871
-292.629
-286.833
-281.272
-278.510
-270.997
-261.539
-258.517
-259.089
-250.801
-242.778
-244.564
-238.267
-230.628
-224.185
-219.009
-209.692
-205.838
-201.935
-193.230
-182.753
-170.724
-156.911
-145.639
-141.722
-134.223
-124.420
-128.633
-136.413
-145.138
-158.172
-163.712
-143.814
-96.496
-47.152
-23.662
-18.939
-23.716
-36.605
-65.339
-89.918
-101.928
-106.166
-106.480
-105.826
-107.088
-100.009
-92.130
-80.476
-61.991
-48.488
-34.628
3.291
118.971
311.652
669.682
1137.863
1603.388
2037.947
2039.992
1455.944
907.015
629.584
497.844
366.463
211.070
84.625
8.624
-36.361
-68.763
-96.803
-123.950
-153.544
-175.030
-201.196
-230.115
-251.172
-270.158
-287.917
-298.014
-298.202
-296.456
-297.573
-305.036
-317.191
-329.897
-350.776
-388.719
-434.072
-466.958
-484.233
-486.208
-476.369
-458.821
-432.998
-405.042
-378.234
-351.223
-324.099
-288.994
-244.167
-191.877
-128.769
-58.812
11.548
85.199
158.870
235.957
311.174
382.916
446.791
500.399
550.577
602.149
640.135
656.018
641.488
585.824
492.145
379.201
254.634
130.664
17.510
-79.967
-157.643
-220.762
-263.846
-292.034
-313.269
-319.048
-318.449
-316.694
-312.063
-303.435
-296.212
-288.644
-276.281
-260.039
-244.318
-233.469
-221.418
-216.781
-212.448
-204.701
-203.945
-203.487
-193.299
-186.722
-181.472
-173.725
-164.213
-158.357
-156.400
-150.369
-142.831
-134.560
-127.916
-127.677
-134.953
-141.838
-141.408
-147.592
-151.580
-148.680
-148.676
-148.850
-145.795
-144.534
-142.464
-140.284
-134.254
-130.068
-126.987
-118.169
-118.532
-116.702
-108.950
-104.737
-105.051
-99.503
-94.937
-88.412
-83.807
-77.861
-71.056
-68.487
-64.961
-62.118
-62.779
-61.881
-59.636
-59.967
-62.552
-63.692
-63.292
-64.935
-64.384
-66.867
-72.674
-75.430
-76.117
-72.811
-72.674
-75.273
-78.588
-85.098
-92.902
-93.664
-96.279
-97.103
-98.205
-99.043
-97.733
-94.418
-94.468
-94.364
-95.279
-100.350
-106.470
-109.803
-122.009
-142.942
-157.297
-172.343
-183.472
-168.825
-127.685
-80.006
-50.828
-39.608
-43.569
-58.984
-83.600
-113.141
-128.357
-133.783
-130.351
-126.286
-128.170
-125.807
-121.210
-123.517
-127.048
-124.327
-124.201
-119.968
-57.537
66.044
303.831
686.711
1095.490
1506.886
1618.823
1076.211
469.729
171.173
49.281
-47.194
-165.679
-259.327
-297.553
-296.926
-277.520
-255.247
-238.192
-218.608
-197.532
-181.945
-172.299
-162.433
-148.397
-134.938
-123.140
-113.856
-105.229
-95.230
-80.122
-69.165
-57.649
-44.634
-29.784
-16.774
-3.060
9.215
26.509
44.392
67.889
88.862
107.019
131.713
160.077
186.228
212.321
244.160
280.840
321.695
362.569
405.103
444.802
488.116
529.727
566.210
599.208
631.416
659.360
683.170
704.164
720.355
715.419
685.595
620.444
522.141
397.898
255.769
110.579
-25.537
-138.705
-228.040
-299.977
-347.678
-373.426
-392.464
-397.664
-389.283
-374.779
-360.657
-346.887
-328.849
-317.885
-304.049
-285.104
-270.624
-258.361
-243.569
-233.852
-227.522
-221.257
-211.449
-204.781
-196.645
-189.027
-179.789
-175.703
-171.484
-165.705
-160.753
-155.661
-153.365
-152.888
-148.484
-139.761
-138.891
-139.498
-138.519
-139.979
-141.063
-135.805
-135.322
-141.023
-139.007
-135.249
-133.031
-134.942
-131.862
-130.376
-128.007
-127.190
-123.428
-122.414
-115.882
-113.672
-116.514
-117.512
-112.370
-111.378
-112.056
-107.295
-105.035
-104.456
-101.596
-98.874
-100.537
-99.137
-94.746
-93.890
-92.301
-90.795
-91.304
-91.689
-89.174
-88.201
-89.134
-87.487
-81.888
-80.911
-79.868
-79.021
-78.475
-78.792
-76.760
-73.097
-70.346
-72.214
-69.587
-68.643
-67.555
-68.152
-67.460
-69.785
-74.235
-73.350
-77.283
-75.023
-72.516
-71.537
-75.102
-75.957
-74.970
-75.694
-75.518
-79.035
-82.246
-82.136
-92.571
-109.354
-121.123
-133.131
-138.671
-123.024
-85.670
-36.218
-5.739
5.012
4.571
