-123.529
-95.449
-66.285
-47.175
-29.478
-14.668
1.351
14.994
24.635
29.731
35.795
45.297
55.012
53.635
37.161
2.674
-35.776
-61.638
-87.200
-117.646
-138.366
-140.112
-129.096
-111.418
-89.504
-80.493
-68.481
-48.990
-41.233
-38.611
-32.008
-24.473
-23.438
-21.545
-21.339
-29.945
-26.379
-22.546
-29.562
-38.389
-45.033
-54.040
-71.686
-93.633
-111.655
-130.744
-150.250
-164.210
-171.869
-172.297
-171.610
-171.157
-162.361
-150.283
-133.898
-123.154
-116.244
-104.130
-97.123
-89.998
-83.939
-88.313
-96.841
-105.942
-117.460
-123.685
-115.975
-92.171
-78.154
-64.127
-49.093
-27.778
-2.230
5.727
-7.234
-21.001
-24.892
-24.796
-36.150
-59.497
-83.051
-103.668
-131.646
-156.149
-156.190
-152.966
-138.292
-124.232
-107.222
-93.702
-75.125
-64.347
-50.829
-22.710
61.206
146.021
210.977
279.529
371.450
450.728
388.378
84.219
-141.502
-163.356
-92.269
-34.578
-9.382
3.279
0.229
-14.371
-17.922
-19.484
-10.844
-2.239
10.577
22.431
30.734
33.994
27.455
10.639
12.230
23.735
41.251
64.851
97.376
135.737
154.823
156.262
157.068
149.889
152.181
164.357
178.960
204.614
233.024
253.693
275.144
292.839
300.380
291.170
289.087
288.422
275.240
253.185
233.669
201.415
174.927
158.532
135.082
102.989
67.333
36.117
-3.578
-41.837
-71.280
-81.728
-77.879
-72.754
-58.543
-44.375
-25.232
-7.793
5.716
24.176
39.393
49.048
54.543
56.229
41.057
27.643
19.126
10.414
6.787
14.735
33.902
38.036
34.557
25.510
8.423
-8.140
-23.279
-40.052
-63.203
-70.811
-69.728
-55.068
-31.821
-4.790
10.702
18.461
36.953
56.627
74.257
89.813
96.820
98.362
95.516
99.316
100.016
97.003
93.677
82.174
57.084
40.764
19.917
-9.844
-18.529
-16.029
-19.650
-16.580
-11.072
-15.032
-14.284
-10.291
-0.994
5.111
18.790
39.603
45.001
50.467
57.871
63.071
61.658
57.252
63.222
54.133
42.157
39.626
30.200
18.632
11.438
10.422
5.327
10.523
28.389
27.349
20.828
24.908
31.812
36.019
44.434
64.132
79.888
76.491
66.641
75.523
88.450
100.558
102.012
96.047
99.832
95.474
80.396
64.077
68.180
75.971
84.763
99.374
116.313
122.962
129.367
134.841
152.594
215.253
300.885
374.920
458.442
566.939
669.234
698.701
435.479
107.876
5.050
9.869
34.833
37.828
16.090
-17.921
-51.505
-86.251
-104.608
-105.162
-99.366
-82.775
-66.484
-67.014
-82.060
-90.638
-90.094
-86.074
-52.118
-2.007
51.437
96.107
134.553
166.737
181.046
188.906
184.062
168.196
157.971
162.600
155.112
154.807
145.453
149.857
153.709
161.507
171.568
174.849
173.130
178.224
171.833
169.479
162.650
148.006
138.767
121.410
90.370
51.103
13.102
-26.738
-67.609
-109.806
-149.421
-188.867
-221.462
-233.645
-238.726
-235.633
-218.757
-194.603
-164.866
-126.183
-86.404
-70.402
-50.618
-20.878
-13.630
-28.929
-41.324
-48.252
-49.852
-48.942
-48.907
-50.467
-49.314
-44.282
-42.371
-54.866
-61.194
-60.828
-65.797
-65.747
-61.888
-53.813
-46.058
-33.782
-20.431
-15.295
-4.365
10.247
15.133
24.731
33.654
30.175
28.391
33.728
31.210
27.398
33.052
29.567
20.512
3.450
-14.049
-26.306
-39.542
-49.258
-61.060
-73.663
-83.733
-90.952
-100.997
-106.371
-106.833
-118.315
-125.043
-115.347
-114.822
-107.179
-100.697
-91.039
-78.631
-58.799
-37.446
-22.391
-8.994
7.229
11.693
0.431
-7.379
-5.492
-0.405
-9.652
-9.360
-17.336
-22.204
-23.438
-45.762
-77.614
-94.119
-112.463
-137.960
-154.560
-160.876
-180.975
-210.784
-238.217
-262.970
-269.719
-267.655
-265.950
-261.790
-242.551
-213.017
-188.504
-158.789
-111.019
-32.523
75.880
175.922
259.716
354.779
443.362
519.094
349.466
-19.662
-178.218
-180.172
-138.588
-117.860
-115.712
-123.768
-146.706
-163.051
-171.254
-169.880
-160.221
-144.220
-144.118
-144.025
-148.324
-150.086
-144.585
-131.435
-118.267
-106.352
-70.600
-25.158
11.769
41.083
72.709
103.306
128.241
148.120
172.275
201.573
242.906
283.905
303.894
305.844
318.993
319.512
310.475
299.529
281.024
265.667
251.686
241.389
228.413
214.964
205.629
183.613
158.990
127.815
93.403
62.647
23.873
-12.406
-41.524
-73.395
-97.351
-114.601
-120.045
-117.264
-108.945
-84.042
-52.054
-14.925
13.046
36.349
63.192
81.896
88.151
85.616
77.337
66.206
58.783
60.271
49.885
34.003
20.251
2.439
-24.678
-48.057
-77.849
-99.798
-105.249
-93.630
-76.029
-43.010
-10.674
15.701
45.847
76.700
94.471
108.717
110.902
105.518
89.361
74.940
78.121
80.684
86.916
99.226
106.569
103.788
101.133
95.302
79.439
63.326
41.961
18.915
2.431
-17.217
-28.393
-34.188
-41.362
-56.269
-58.521
-39.725
-18.069
10.481
55.019
90.433
122.730
163.513
204.510
230.328
233.594
233.699
235.329
237.460
212.482
162.707
115.112
76.029
47.913
17.330
-12.610
-49.644
-83.523
-114.450
-132.466
-123.331
-99.471
-62.863
-8.059
66.185
140.120
214.091
283.121
340.480
419.006
547.643
685.308
800.344
921.496
1049.524
1153.402
1079.303
778.050
588.403
592.686
649.550
687.029
696.767
682.391
659.225
623.152
581.257
544.770
502.445
444.756
373.122
294.953
203.886
112.203
29.451
-45.625
-98.217
-123.593
-112.205
-75.142
-22.479
32.139
70.837
91.723
97.990
101.629
109.938
129.786
144.962
159.245
184.038
223.367
257.636
276.965
280.312
277.388
268.509
267.845
252.074
227.343
196.496
174.057
163.460
168.468
165.469
164.520
152.452
124.875
76.397
29.121
-12.616
-59.023
-103.064
-136.915
-155.908
-167.353
-185.137
-198.661
-201.136
-197.541
-202.853
-209.262
-209.138
-207.266
-199.778
-191.678
-180.896
-153.571
-123.315
-93.036
-71.270
-65.540
-75.643
-99.748
-135.557
-193.833
-245.580
-297.646
-344.225
-383.805
-418.786
-448.758
-462.658
-473.357
-486.917
-478.143
-455.269
-435.137
-418.342
-410.017
-399.570
-387.585
-376.958
-358.153
-343.335
-337.892
-338.602
-346.355
-361.315
-367.287
-369.475
-379.014
-381.049
-374.286
-371.816
-371.113
-375.548
-377.028
-376.613
-380.364
-381.335
-387.179
-387.593
-363.673
-324.169
-297.701
-283.206
-270.477
-259.759
-255.658
-286.660
-334.038
-365.844
-376.651
-392.004
-403.592
-407.228
-408.618
-406.546
-407.137
-405.388
-396.759
-376.074
-341.983
-303.986
-270.263
-238.104
-212.516
-187.671
-168.486
-129.473
-57.736
14.503
84.446
168.980
263.633
345.596
248.526
-77.977
-294.211
-303.362
-235.972
-178.281
-159.140
-146.113
-142.599
-134.329
-121.418
-104.237
-80.692
-43.823
-8.004
11.376
31.878
44.395
55.099
69.571
92.171
104.021
122.783
147.836
149.907
152.712
161.430
161.418
145.295
130.232
132.626
150.406
173.104
206.146
234.827
265.775
291.938
299.687
290.689
284.691
270.541
244.490
223.151
210.934
191.339
166.125
147.893
133.869
116.334
99.251
80.387
49.120
13.979
-25.521
-56.318
-78.448
-94.092
-118.211
-142.558
-157.224
-153.778
-157.346
-157.705
-143.958
-137.870
-129.955
-114.831
-103.042
-99.503
-101.902
-100.151
-98.337
-93.748
-71.914
-52.547
-32.193
-25.239
-26.355
-28.957
-34.998
-46.345
-55.315
-56.466
-48.992
-34.008
-17.622
1.997
25.106
35.545
39.503
46.272
53.930
61.536
60.768
59.660
69.669
82.805
85.348
81.546
75.255
71.447
72.876
65.633
59.485
39.853
26.406
18.544
20.077
17.374
16.948
32.199
46.735
76.076
98.704
111.853
127.084
149.288
172.465
181.968
160.372
135.435
121.692
108.159
83.729
59.196
33.373
4.701
-25.413
-63.846
-91.278
-101.138
-99.440
-88.005
-71.371
-54.535
-33.027
-10.076
15.505
40.858
83.826
160.522
240.116
317.541
426.868
523.947
608.535
474.745
91.739
-109.476
-115.366
-56.977
-14.764
-6.340
-6.784
-16.729
-19.354
-17.675
-4.898
9.314
37.863
64.048
82.963
79.997
69.653
69.444
76.034
99.608
130.443
163.844
206.681
244.997
242.018
213.365
185.707
144.460
92.187
37.242
2.681
-18.425
-43.824
-70.133
-94.925
-109.408
-113.858
-123.772
-148.082
-173.491
-204.124
-259.494
-322.370
-381.837
-431.117
-485.260
-533.300
-549.567
-551.390
-545.022
-534.312
-525.092
-520.717
-507.405
-492.489
-476.781
-460.706
-449.180
-436.894
-412.434
-382.995
-366.262
-321.377
-280.037
-236.125
-193.060
-144.026
-65.204
14.534
100.181
203.826
292.345
393.219
471.271
546.686
639.323
708.688
775.332
825.840
891.843
970.214
1081.640
1207.978
1336.355
1468.998
1598.630
1679.595
1727.911
1769.248
1800.545
1802.784
1769.458
1708.351
1614.759
1501.583
1383.270
1268.143
1159.142
1029.741
877.338
722.276
589.816
497.451
409.787
295.137
151.828
-11.417
-180.032
-287.240
-280.767
-172.400
-52.714
-18.024
-36.172
-59.725
-88.328
-132.020
-175.294
-190.064
-229.443
-314.205
-405.835
-461.341
-442.643
-385.351
-288.971
-175.562
-76.512
25.329
126.750
203.209
209.471
161.364
131.644
125.695
109.063
48.747
-19.229
-45.090
-54.055
-90.181
-76.146
-21.406
47.225
244.605
496.690
646.129
414.909
20.698
-82.440
-37.130
15.268
43.273
13.573
-58.062
-111.279
-157.633
-211.664
-232.929
-261.375
-278.415
-286.477
-287.082
-306.190
-327.060
-333.585
-321.256
-288.011
-237.353
-165.374
-78.509
9.208
107.979
188.972
253.807
321.432
360.251
356.493
338.658
308.160
271.983
231.666
184.861
143.968
106.499
70.789
41.229
23.920
34.637
61.716
88.264
110.326
140.439
153.273
141.903
82.158
2.819
-65.386
-116.528
-166.279
-214.754
-237.701
-233.593
-222.951
-242.279
-272.233
-300.926
-321.199
-334.579
-349.845
-376.859
-413.790
-463.423
-524.238
-577.227
-648.127
-711.554
-770.332
-823.182
-847.316
-876.825
-891.953
-880.036
-876.261
-898.148
-920.453
-966.978
-1046.979
-1151.113
-1246.113
-1341.335
-1419.239
-1495.771
-1591.222
-1677.684
-1758.779
-1829.080
-1870.762
-1904.575
-1914.390
-1913.428
-1897.397
-1858.805
-1807.918
-1766.095
-1731.844
-1689.060
-1637.840
-1580.170
-1494.479
-1376.688
-1239.434
-1098.034
-963.658
-843.486
-744.557
-657.623
-587.455
-514.883
-428.380
-345.524
-260.544
-157.879
-67.582
21.776
98.344
173.321
240.363
259.826
241.794
202.392
139.891
77.762
18.846
-35.517
-84.706
-129.280
-175.778
-216.145
-239.878
-258.982
-274.355
-268.993
-254.948
-230.242
-191.772
-155.899
-108.110
-31.380
105.277
251.592
357.054
477.789
619.913
728.236
682.543
416.764
221.850
248.972
346.256
431.808
485.813
527.680
558.645
581.090
603.151
628.940
660.624
680.220
691.613
688.760
677.371
658.675
637.396
610.642
588.957
592.551
617.192
662.653
703.798
734.111
731.103
695.608
651.422
583.509
533.623
510.689
490.692
501.582
530.940
553.588
571.506
596.230
622.514
663.229
719.291
764.134
803.854
845.386
889.236
885.182
863.153
823.063
793.525
746.542
667.918
559.135
402.932
289.082
244.744
267.811
334.952
427.445
509.840
554.998
582.096
603.716
643.403
712.443
811.156
888.409
937.944
936.529
907.108
850.984
752.276
651.953
567.112
502.749
497.313
528.358
569.723
608.317
637.887
638.202
622.559
583.469
530.259
502.231
497.095
498.471
508.039
534.027
564.853
582.448
593.134
598.957
565.821
528.586
493.987
454.348
414.141
369.131
336.410
333.763
359.780
389.098
421.380
474.104
517.071
528.174
529.189
504.871
444.886
396.512
355.912
314.825
263.552
219.921
182.637
123.216
44.078
-27.068
-80.911
-126.039
-163.992
-191.696
-206.849
-224.833
-278.011
-321.826
-352.607
-349.652
-334.280
-328.274
-311.523
-288.036
-248.113
-199.084
-158.871
-149.222
-167.668
-180.382
-190.680
-200.529
-201.999
-183.589
-159.620
-110.859
-20.595
103.111
200.113
304.376
418.168
511.154
589.141
341.747
-72.306
-230.117
-215.054
-139.553
-92.644
-81.713
-64.694
-41.490
-29.856
-13.228
-9.629
-2.408
9.994
19.597
24.867
31.526
35.178
38.100
62.967
83.772
104.151
135.421
160.504
186.941
201.878
190.626
160.871
137.191
111.098
107.109
119.769
152.427
196.121
240.164
276.851
308.150
335.313
365.703
386.589
412.869
423.500
422.859
409.297
390.842
383.036
382.612
385.072
376.707
327.197
198.366
30.370
-139.586
-285.279
-397.165
-476.336
-533.076
-540.698
-542.860
-561.867
-583.084
-599.275
-625.285
-671.200
-739.143
-826.897
-918.579
-1002.406
-1074.497
-1126.784
-1154.596
-1165.232
-1159.950
-1129.266
-1099.934
-1064.892
-1025.743
-990.644
-958.651
-913.148
-874.378
-830.195
-791.213
-748.076
-699.336
-642.032
-584.388
-532.250
-483.202
-426.268
-391.310
-366.345
-360.595
-381.445
-410.253
-432.901
-465.859
-511.000
-541.080
-555.388
-554.439
-536.645
-519.272
-504.843
-476.236
-424.956
-356.730
-299.230
-240.020
-160.700
-62.187
34.046
122.041
189.041
249.787
292.661
335.745
387.306
427.939
451.815
470.545
477.868
476.589
474.904
439.359
364.555
294.143
214.517
116.956
15.943
-75.135
-163.782
-252.416
-319.972
-385.610
-438.015
-475.473
-517.139
-534.432
-537.350
-506.565
-430.771
-322.442
-173.855
32.272
296.545
576.192
863.404
1175.654
1508.757
1804.881
1924.720
1761.209
1603.931
1576.640
1594.270
1595.245
1536.326
1428.641
1307.894
1191.231
1084.605
994.245
935.514
899.686
850.267
785.231
712.133
652.809
557.775
449.210
344.962
184.982
198.260
365.255
492.754
520.076
489.289
428.594
315.629
164.200
66.654
13.495
-83.286
-182.031
-255.792
-296.082
-306.247
-319.077
-303.218
-261.053
-203.786
-164.068
-146.948
-157.441
-195.294
-221.696
-226.306
-222.354
-232.127
-241.177
-240.960
-266.707
-283.754
-283.316
-279.883
-277.607
-263.298
-240.508
-223.131
-215.245
-202.963
-184.692
-173.096
-171.907
-189.733
-232.828
-290.912
-364.402
-436.185
-502.585
-549.274
-560.679
-548.588
-543.097
-547.697
-560.243
-567.719
-572.426
-563.045
-551.974
-555.667
-569.194
-584.382
-599.271
-624.871
-672.344
-712.795
-746.280
-763.004
-773.424
-789.167
-792.004
-781.041
-771.152
-759.756
-740.872
-707.861
-675.060
-648.840
-632.568
-630.245
-646.501
-662.304
-685.935
-712.505
-733.355
-759.018
-785.155
-806.717
-828.085
-849.187
-871.515
-898.332
-929.806
-963.111
-966.167
-930.578
-873.521
-814.010
-749.302
-701.908
-659.572
-621.253
-603.519
-626.022
-640.495
-634.060
-635.030
-640.133
-637.258
-628.466
-615.218
-596.136
-564.669
-525.002
-481.447
-445.655
-422.484
-408.663
-397.991
-399.689
-413.254
-417.527
-408.137
-351.762
-287.783
-248.613
-192.109
-110.167
-35.240
-72.828
-327.921
-566.034
-590.064
-518.338
-439.793
-377.360
-342.703
-315.396
-294.980
-278.012
-249.613
-215.982
-176.217
-146.550
-127.689
-112.713
-118.033
-128.128
-141.513
-163.233
-170.369
-153.748
-130.699
-102.871
-58.089
-19.805
-9.971
-4.858
16.713
44.510
80.819
121.787
163.570
201.473
250.117
307.417
363.171
412.067
444.035
466.527
483.148
493.003
488.553
462.803
419.597
365.476
306.751
239.202
172.584
97.458
27.994
-19.323
-54.211
-64.396
-61.808
-36.658
-1.315
33.886
93.104
167.242
227.932
287.966
339.200
389.224
439.672
475.478
485.067
473.958
462.347
442.377
436.440
438.929
453.651
453.747
449.438
444.469
422.647
394.028
347.740
291.501
234.995
175.803
122.999
68.697
36.588
23.185
21.846
30.703
47.672
57.848
74.618
92.673
110.979
131.391
158.546
189.960
206.066
208.341
215.583
226.206
231.665
239.121
241.229
234.965
222.393
209.417
196.993
189.087
163.256
138.756
111.232
100.215
99.295
91.531
92.855
113.291
125.023
134.211
155.897
172.816
202.788
226.424
221.850
215.206
229.810
239.604
246.772
252.206
252.931
245.628
228.893
194.166
153.270
127.161
107.064
102.639
98.080
81.211
52.332
27.908
20.657
14.498
27.945
81.000
158.616
216.799
293.136
381.114
497.857
497.733
140.770
-171.098
-248.768
-233.085
-210.588
-208.126
-217.489
-229.927
-240.851
-239.654
-225.422
-209.003
-204.049
-205.936
-207.324
-209.663
-216.926
-216.663
-200.752
-173.440
-149.759
-131.226
-115.304
-110.546
-111.832
-126.103
-168.542
-213.366
-242.425
-274.187
-296.171
-307.157
-308.736
-297.985
-285.123
-266.043
-245.586
-225.945
-210.177
-193.891
-185.767
-167.506
-143.422
-123.641
-113.377
-120.140
-134.578
-145.299
-162.633
-188.428
-223.875
-252.306
-282.750
-304.504
-316.118
-314.333
-314.316
-318.708
-317.571
-310.945
-311.374
-313.227
-306.826
-303.627
-298.054
-302.279
-310.340
-324.438
-334.935
-353.001
-368.384
-389.242
-397.222
-383.777
-374.971
-370.802
-378.266
-406.597
-438.508
-447.568
-445.875
-423.149
-382.148
-336.315
-283.296
-232.318
-183.080
-126.298
-60.830
10.936
83.151
157.441
228.671
301.875
371.538
420.549
446.866
444.863
424.997
385.731
321.249
255.287
203.379
148.124
94.010
52.096
21.816
3.862
1.568
2.215
15.598
46.719
87.726
132.776
175.132
214.160
251.042
271.719
276.743
275.426
269.899
268.005
266.638
243.793
214.387
203.331
193.884
173.856
161.112
161.624
151.347
145.014
145.874
141.723
142.726
161.199
170.262
187.477
211.970
234.121
251.693
268.567
286.527
325.226
396.398
466.603
515.703
572.226
631.048
647.629
482.730
166.885
17.335
43.953
135.309
211.621
264.493
292.620
304.387
303.227
299.914
319.138
341.184
361.353
377.136
385.836
394.092
390.310
379.881
373.486
366.989
381.236
415.613
454.962
480.046
491.890
485.525
474.986
444.493
411.678
384.507
368.289
366.275
373.166
393.292
415.667
435.496
452.347
476.600
498.664
502.144
512.788
508.156
500.185
494.246
485.917
466.154
444.584
409.855
369.182
315.358
271.825
229.610
180.550
139.598
106.313
81.438
70.661
70.773
76.360
75.613
82.364
105.255
133.577
147.218
151.063
149.956
139.616
128.977
131.074
152.801
179.447
192.869
198.325
201.402
188.377
170.118
153.205
145.728
142.727
125.733
122.180
123.897
126.150
129.901
135.630
138.289
150.554
165.952
189.973
210.362
229.427
255.064
267.924
276.876
294.968
289.030
275.039
271.299
244.808
209.038
180.057
147.647
97.409
33.850
-20.444
-70.776
-107.165
-128.695
-146.542
-154.096
-140.645
-131.202
-135.398
-140.426
-149.864
-158.041
-172.041
-211.350
-255.204
-280.997
-268.743
-249.390
-214.226
-148.201
-80.856
-18.754
26.748
73.555
126.328
183.305
239.169
280.234
321.790
349.618
362.830
363.905
365.454
383.556
443.553
504.121
537.538
593.265
657.421
733.431
718.172
355.642
-3.525
-91.294
-65.187
-39.163
-32.450
-44.743
-71.392
-89.703
-97.788
-94.015
-90.927
-75.761
-70.831
-71.503
-57.362
-46.470
-42.359
-13.672
42.432
111.848
196.647
283.426
359.758
407.629
434.567
446.954
446.354
439.156
430.509
412.508
383.820
345.360
303.105
250.403
186.273
116.610
54.233
-8.453
-66.148
-126.860
-186.453
-236.494
-279.141
-313.598
-336.382
-366.728
-402.737
-438.636
-473.188
-516.596
-551.251
-587.591
-614.860
-635.252
-649.997
-658.407
-664.840
-666.994
-662.416
-657.811
-645.131
-620.422
-597.303
-581.669
-563.746
-549.320
-554.184
-560.253
-566.508
-585.943
-599.483
-608.483
-617.796
-634.754
-641.747
-644.073
-659.093
-663.148
-661.245
-667.081
-672.526
-671.019
-658.638
-634.231
-598.538
-565.373
-535.704
-509.831
-483.826
-464.635
-440.280
-401.593
-364.960
-331.046
-296.647
-257.633
-225.829
-200.511
-173.647
-151.600
-127.843
-95.453
-70.585
-40.479
-11.465
18.195
36.013
54.127
65.254
71.386
86.888
107.756
125.313
122.391
137.699
159.048
186.388
217.798
237.185
240.448
256.004
271.891
278.024
290.270
315.313
335.185
351.365
375.782
393.036
411.506
448.726
472.874
498.131
525.071
540.772
549.753
559.323
557.325
551.316
577.634
628.825
660.531
674.847
698.834
715.059
656.383
383.401
77.952
19.161
73.417
150.742
219.276
244.638
252.711
263.967
272.415
292.378
318.924
354.548
369.239
361.909
343.592
305.492
257.581
207.376
175.434
161.393
157.763
171.755
196.710
226.174
245.517
253.783
244.804
228.612
207.476
189.553
194.807
219.097
233.228
251.378
267.123
282.635
285.143
300.674
317.984
321.104
325.418
329.103
328.841
331.085
331.255
326.698
318.796
312.807
294.799
267.728
240.870
216.065
194.534
185.627
186.146
196.939
206.113
226.830
238.832
237.657
228.263
210.841
192.586
165.336
126.348
73.929
11.596
-35.471
-62.408
-62.454
-50.293
-31.721
-23.053
-19.627
-6.433
-0.640
0.396
7.792
22.040
25.186
39.095
57.353
82.027
113.425
150.684
184.105
220.591
262.967
296.390
304.901
300.453
279.351
254.297
227.440
195.896
152.920
95.690
36.919
-11.483
-59.668
-120.065
-171.303
-211.306
-242.601
-264.541
-278.711
-287.311
-291.662
-296.752
-299.410
-288.719
-261.085
-223.079
-188.225
-155.659
-123.579
-92.974
-65.291
-64.421
-76.453
-70.357
-60.676
-58.513
-57.519
-60.053
-64.574
-80.587
-97.804
-121.572
-141.981
-142.866
-146.099
-159.312
-179.096
-194.192
-202.756
-212.167
-200.292
-167.836
-92.747
-7.407
64.320
177.964
290.741
426.665
372.760
-16.927
-265.549
-292.313
-257.711
-222.863
-215.859
-225.532
-251.562
-267.912
-260.537
-229.334
-182.751
-131.766
-85.539
-41.824
-2.788
31.414
59.674
96.580
148.092
188.663
227.835
260.101
283.627
297.548
307.575
303.305
286.063
269.437
270.679
265.595
266.618
260.452
254.318
252.994
251.762
249.951
237.579
228.593
213.061
197.791
179.089
155.537
129.314
107.421
87.829
68.007
42.970
12.890
-23.568
-63.516
-104.869
-147.191
-176.781
-196.746
-224.094
-257.409
-291.125
-313.349
-322.969
-339.057
-351.246
-371.023
-394.716
-419.896
-441.410
-465.791
-496.709
-522.615
-550.497
-568.707
-571.388
-569.018
-586.508
-605.136
-615.719
-638.945
-654.482
-661.385
-661.920
-656.989
-654.756
-650.939
-646.729
-647.500
-643.257
-628.691
-620.521
-599.906
-573.802
-549.871
-522.440
-497.312
-473.369
-459.752
-449.666
-444.914
-443.780
-441.336
-449.719
-448.842
-437.825
-441.251
-446.835
-446.095
-431.880
-417.467
-407.563
-394.684
-374.766
-359.435
-349.793
-346.718
-345.084
-337.487
-315.323
-283.889
-252.814
-222.719
-197.671
-178.218
-155.194
-136.723
-151.322
-163.509
-158.485
-157.443
-164.066
-163.544
-161.512
-164.683
-155.820
-149.478
-129.144
-107.914
-78.481
-52.547
-18.373
19.590
71.089
117.491
166.130
237.506
321.126
450.822
563.274
672.863
832.872
1004.010
1139.412
1142.539
936.855
871.295
962.512
1104.253
1213.759
1281.742
1320.521
1322.473
1277.410
1197.045
1102.320
1002.373
880.620
743.980
630.690
544.970
496.735
473.903
448.157
415.369
374.170
324.730
264.135
225.156
204.837
196.113
174.084
131.704
74.180
-3.351
-116.655
-257.108
-394.702
-491.457
-562.420
-623.135
-685.951
-739.659
-768.530
-791.688
-806.866
-810.776
-829.202
-839.403
-837.219
-818.713
-776.908
-720.024
-669.606
-632.724
-594.911
-568.144
-566.827
-575.785
-560.690
-522.068
-483.652
-462.163
-415.347
-375.888
-353.395
-329.489
-338.209
-354.265
-381.795
-416.267
-453.731
-481.396
-493.379
-476.122
-424.875
-360.844
-287.721
-217.595
-161.962
-116.943
-85.974
-57.157
-39.158
-38.897
-39.035
-40.483
-22.566
3.155
45.292
97.786
150.659
199.758
239.057
274.081
298.840
313.891
310.816
300.171
280.179
246.944
212.344
192.183
178.201
148.655
117.381
84.092
56.751
46.578
44.756
53.226
62.765
79.656
112.992
136.383
158.459
182.189
204.590
212.751
221.964
241.467
253.497
270.601
281.306
294.844
321.370
358.738
374.031
348.346
328.673
323.577
321.697
318.994
304.088
301.371
298.148
291.601
272.196
249.775
235.397
230.357
226.316
214.793
197.747
171.332
135.407
104.537
88.397
94.419
135.015
193.659
241.444
305.922
364.353
429.985
383.339
27.435
-251.105
-305.250
-271.918
-246.855
-251.066
-263.652
-271.329
-283.386
-294.579
-295.405
-292.333
-296.022
-305.581
-312.804
-335.856
-371.020
-392.499
-410.186
-432.717
-452.684
-467.827
-478.924
-502.717
-528.135
-560.531
-609.124
-679.947
-752.654
-795.867
-809.317
-812.697
-807.935
-787.953
-755.706
-723.202
-678.262
-625.885
-569.797
-509.963
-467.491
-437.678
-419.026
-406.674
-413.107
-447.808
-486.647
-524.609
-564.543
-599.351
-624.532
-674.623
-729.426
-764.249
-754.778
-714.642
-665.006
-610.492
-563.855
-508.202
-450.056
-382.493
-318.209
-251.690
-193.461
-147.184
-122.148
-119.413
-124.628
-127.876
-144.521
-154.671
-161.607
-173.811
-183.560
-175.508
-163.189
-158.810
-168.578
-180.507
-190.600
-198.724
-209.203
-201.299
-190.613
-199.249
-204.277
-211.245
-224.964
-230.914
-238.794
-247.610
-248.500
-245.751
-232.006
-215.173
-192.780
-167.699
-159.695
-146.220
-115.139
-101.331
-88.825
-74.302
-74.518
-86.848
-97.911
-101.020
-91.801
-56.420
-4.527
48.356
99.149
147.624
208.248
257.787
275.631
285.317
303.033
333.121
334.931
345.010
361.335
364.195
359.579
354.416
368.960
381.685
389.520
395.113
391.869
364.159
327.567
304.215
265.803
225.957
215.658
258.757
301.444
329.516
398.496
464.371
522.478
406.632
58.697
-144.025
-145.584
-68.337
2.901
44.235
63.896
71.424
77.558
96.674
123.512
151.765
176.869
204.130
237.495
277.275
318.544
352.901
372.922
385.264
394.868
425.885
465.656
493.845
517.020
532.586
528.768
502.922
484.110
460.231
424.418
386.617
357.280
336.721
311.119
287.734
286.835
287.230
285.069
279.510
279.199
278.298
278.097
267.537
247.339
223.116
183.083
130.213
79.926
34.127
-8.719
-53.072
-81.681
-98.795
-107.792
-111.190
-108.734
-110.227
-107.013
-93.208
-92.190
-90.427
-95.210
-96.424
-96.123
-104.999
-128.954
-151.505
-186.608
-210.777
-226.260
-236.442
-252.802
-291.650
-323.167
-348.632
-367.589
-392.119
-415.186
-423.178
-415.904
-403.914
-397.427
-411.569
-424.024
-421.174
-412.689
-409.366
-402.254
-406.217
-409.148
-415.466
-425.470
-433.712
-435.611
-435.452
-438.367
-436.941
-419.651
-391.293
-383.615
-379.167
-364.223
-355.620
-351.922
-355.904
-370.700
-399.534
-417.120
-420.070
-405.330
-384.220
-388.953
-397.065
-387.066
-367.234
-357.695
-348.668
-327.969
-300.473
-276.848
-272.189
-272.031
-267.409
-258.962
-256.741
-255.922
-248.411
-242.505
-243.881
-252.537
-257.615
-255.970
-255.375
-234.719
-217.032
-203.730
-165.741
-111.948
-47.597
40.644
152.121
310.350
464.375
564.169
651.444
733.229
777.928
648.292
317.353
97.894
46.729
83.879
120.841
144.641
155.902
124.424
113.452
160.758
274.317
412.364
568.921
696.694
810.108
962.294
1136.263
1337.342
1486.786
1578.810
1660.957
1620.820
1496.031
1351.467
1188.293
1048.801
907.944
739.428
543.031
